#====== H (10) into Layer 1                      =======
#        SRIM-2013.00
#========================================
#      Ion and Recoil IONIZATION     
# See SRIM Outputs\TDATA.txt for details   
#========================================
#--------------------------------------------------------------------
#    Recoil/Damage Calculations made with Kinchin-Pease Estimates    
#--------------------------------------------------------------------
# See file :  SRIM Outputs\TDATA.txt   for calculation data
# Ion    = He   Energy = 10000 keV
#============= TARGET MATERIAL ======================================
#Layer 1 : Carbon Dioxide (ICRU-134)
#Layer Width = 50000.E+05 A ;
#  Layer # 1- Density = 1.890E19 atoms/cm3 = .0004 g/cm3
#  Layer # 1-  C = 33.3 Atomic Percent = 27.2 Mass Percent
#  Layer # 1-  O = 66.6 Atomic Percent = 72.7 Mass Percent
#====================================================================
# Total Ions calculated =004000.00
#===============================================================
#  Ionization Energy Units are  >>>>  eV /(Angstrom-Ion)  <<<<  
#===============================================================
#
#  TARGET       IONIZ.       IONIZ.  
#  DEPTH         by           by     
#  (Ang)        IONS         RECOILS 
#-----------  -----------  -----------
350000.E+02  2133.11E-06  3243.49E-10
700000.E+02  2134.14E-06  9912.76E-11
105000.E+03  2146.84E-06  1645.59E-10
140000.E+03  2160.47E-06  1577.31E-10
175000.E+03  2171.76E-06  2225.68E-10
210000.E+03  2184.61E-06  1408.86E-10
245000.E+03  2200.03E-06  2504.80E-10
280000.E+03  2220.60E-06  2496.22E-10
315000.E+03  2232.74E-06  1155.63E-10
350000.E+03  2252.75E-06  1107.76E-10
385000.E+03  2263.94E-06  1129.20E-10
420000.E+03  2279.97E-06  1960.69E-10
455000.E+03  2296.80E-06  3642.34E-10
490000.E+03  2318.67E-06  1455.07E-10
525000.E+03  2332.85E-06  2260.06E-10
560000.E+03  2349.37E-06  2470.35E-10
595000.E+03  2366.35E-06  1285.77E-08
630000.E+03  2383.36E-06  3920.44E-10
665000.E+03  2399.50E-06  1915.93E-10
700000.E+03  2422.77E-06  2130.78E-10
735000.E+03  2438.97E-06  2553.55E-09
770000.E+03  2456.27E-06  1484.27E-10
805000.E+03  2473.27E-06  1413.82E-10
840000.E+03  2492.89E-06  5012.11E-09
875000.E+03  2509.52E-06  1915.72E-10
910000.E+03  2526.91E-06  1253.16E-10
945000.E+03  2550.89E-06  2256.64E-10
980000.E+03  2568.49E-06  1380.20E-10
101500.E+04  2591.94E-06  2214.75E-10
105000.E+04  2610.84E-06  1408.54E-10
108500.E+04  2638.87E-06  2252.54E-09
112000.E+04  2662.50E-06  1210.99E-10
115500.E+04  2685.74E-06  1503.19E-10
119000.E+04  2710.16E-06  9348.73E-10
122500.E+04  2729.97E-06  1461.36E-10
126000.E+04  2760.06E-06  2103.59E-10
129500.E+04  2790.87E-06  2992.28E-10
133000.E+04  2818.94E-06  2127.13E-10
136500.E+04  2842.88E-06  1613.48E-10
140000.E+04  2877.58E-06  4973.54E-10
143500.E+04  2909.65E-06  2345.03E-10
147000.E+04  2940.48E-06  5741.59E-10
150500.E+04  2976.86E-06  3385.11E-10
154000.E+04  3007.50E-06  2679.51E-10
157500.E+04  3049.52E-06  1871.96E-09
161000.E+04  3077.82E-06  2881.39E-10
164500.E+04  3120.31E-06  2315.60E-10
168000.E+04  3163.15E-06  2692.82E-10
171500.E+04  3198.98E-06  4219.06E-10
175000.E+04  3245.81E-06  3955.17E-10
178500.E+04  3296.97E-06  3615.73E-10
182000.E+04  3343.19E-06  3974.93E-10
185500.E+04  3397.84E-06  2250.56E-10
189000.E+04  3445.05E-06  4897.58E-10
192500.E+04  3507.42E-06  4312.40E-10
196000.E+04  3569.68E-06  2003.90E-10
199500.E+04  3638.65E-06  6696.70E-10
203000.E+04  3706.62E-06  2351.71E-09
206500.E+04  3776.61E-06  4283.62E-10
210000.E+04  3852.94E-06  4117.23E-09
213500.E+04  3936.34E-06  2884.49E-10
217000.E+04  4024.16E-06  4476.80E-10
220500.E+04  4112.62E-06  4571.16E-09
224000.E+04  4217.44E-06  9837.74E-10
227500.E+04  4330.37E-06  3531.39E-10
231000.E+04  4447.79E-06  4588.55E-10
234500.E+04  4583.54E-06  6250.50E-10
238000.E+04  4728.22E-06  6464.51E-10
241500.E+04  4892.07E-06  8287.11E-10
245000.E+04  5075.95E-06  1273.77E-09
248500.E+04  5284.50E-06  7485.88E-10
252000.E+04  5519.74E-06  1256.79E-09
255500.E+04  5802.11E-06  8413.10E-09
259000.E+04  6105.04E-06  1303.53E-09
262500.E+04  6468.49E-06  8992.99E-10
266000.E+04  6906.24E-06  1209.01E-09
269500.E+04  7390.59E-06  5199.05E-09
273000.E+04  7891.29E-06  1565.38E-09
276500.E+04  8168.19E-06  4315.55E-09
280000.E+04  7728.05E-06  4528.55E-09
283500.E+04  5964.09E-06  1276.52E-08
287000.E+04  2930.28E-06  2524.11E-08
290500.E+04  5605.10E-07  1142.58E-08
294000.E+04  2697.07E-08  8816.59E-10
297500.E+04  1618.40E-10  6464.73E-12
301000.E+04  0000.00E+00  0000.00E+00
304500.E+04  0000.00E+00  0000.00E+00
308000.E+04  0000.00E+00  0000.00E+00
311500.E+04  0000.00E+00  0000.00E+00
315000.E+04  0000.00E+00  0000.00E+00
318500.E+04  0000.00E+00  0000.00E+00
322000.E+04  0000.00E+00  0000.00E+00
325500.E+04  0000.00E+00  0000.00E+00
329000.E+04  0000.00E+00  0000.00E+00
332500.E+04  0000.00E+00  0000.00E+00
336000.E+04  0000.00E+00  0000.00E+00
339500.E+04  0000.00E+00  0000.00E+00
343000.E+04  0000.00E+00  0000.00E+00
346500.E+04  0000.00E+00  0000.00E+00
350000.E+04  0000.00E+00  0000.00E+00
