#====== H (10) into Layer 1                      =======
#        SRIM-2013.00
#========================================
#      Ion and Recoil IONIZATION     
# See SRIM Outputs\TDATA.txt for details   
#========================================
#--------------------------------------------------------------------
#    Recoil/Damage Calculations made with Kinchin-Pease Estimates    
#--------------------------------------------------------------------
# See file :  SRIM Outputs\TDATA.txt   for calculation data
# Ion    =  C   Energy = 5000 keV
#============= TARGET MATERIAL ======================================
#Layer 1 : Carbon Dioxide (ICRU-134)
#Layer Width = 10000.E+05 A ;
#  Layer # 1- Density = 1.398E19 atoms/cm3 = 3.406 g/cm3
#  Layer # 1-  C = 33.3 Atomic Percent = 27.2 Mass Percent
#  Layer # 1-  O = 66.6 Atomic Percent = 72.7 Mass Percent
#====================================================================
# Total Ions calculated =000999.00
#===============================================================
#  Ionization Energy Units are  >>>>  eV /(Angstrom-Ion)  <<<<  
#===============================================================
#
#  TARGET       IONIZ.       IONIZ.  
#  DEPTH         by           by     
#  (Ang)        IONS         RECOILS 
#-----------  -----------  -----------
500000.E+01  2299.45E-05  3449.24E-08
100000.E+02  2315.00E-05  5588.84E-09
150000.E+02  2312.71E-05  5581.28E-09
200000.E+02  2319.23E-05  4973.99E-09
250000.E+02  2320.35E-05  4991.58E-09
300000.E+02  2326.47E-05  1405.40E-08
350000.E+02  2322.51E-05  6219.22E-09
400000.E+02  2320.88E-05  5392.27E-09
450000.E+02  2338.68E-05  6775.61E-09
500000.E+02  2337.47E-05  6543.75E-09
550000.E+02  2346.47E-05  1043.84E-08
600000.E+02  2336.56E-05  6427.95E-09
650000.E+02  2334.26E-05  5344.69E-08
700000.E+02  2335.32E-05  4247.74E-09
750000.E+02  2339.48E-05  1927.12E-08
800000.E+02  2332.66E-05  2196.12E-08
850000.E+02  2320.00E-05  1886.27E-08
900000.E+02  2312.37E-05  6372.05E-09
950000.E+02  2300.01E-05  7591.86E-09
100000.E+03  2287.28E-05  8685.75E-09
105000.E+03  2275.36E-05  2093.64E-08
110000.E+03  2250.41E-05  6936.19E-08
115000.E+03  2228.55E-05  7972.34E-09
120000.E+03  2209.28E-05  1281.54E-08
125000.E+03  2182.06E-05  1341.35E-08
130000.E+03  2157.94E-05  2539.59E-08
135000.E+03  2122.85E-05  6518.86E-08
140000.E+03  2079.70E-05  3920.94E-08
145000.E+03  2037.60E-05  6850.27E-08
150000.E+03  1994.10E-05  1081.16E-08
155000.E+03  1946.99E-05  3505.25E-08
160000.E+03  1897.82E-05  1332.59E-07
165000.E+03  1837.98E-05  5489.38E-08
170000.E+03  1778.77E-05  1971.38E-08
175000.E+03  1728.72E-05  2861.85E-08
180000.E+03  1664.89E-05  3259.25E-08
185000.E+03  1609.05E-05  5465.84E-08
190000.E+03  1525.36E-05  1029.60E-07
195000.E+03  1460.73E-05  1890.68E-07
200000.E+03  1395.53E-05  3252.92E-08
205000.E+03  1321.47E-05  1157.75E-07
210000.E+03  1252.73E-05  5976.29E-08
215000.E+03  1177.50E-05  1237.35E-07
220000.E+03  1103.15E-05  6990.21E-08
225000.E+03  1040.88E-05  9474.29E-08
230000.E+03  9796.37E-06  1557.67E-07
235000.E+03  9109.23E-06  8036.37E-08
240000.E+03  8406.28E-06  1706.06E-07
245000.E+03  7879.18E-06  1597.49E-07
250000.E+03  7173.48E-06  1696.34E-07
255000.E+03  6626.69E-06  1924.26E-07
260000.E+03  6070.67E-06  1887.02E-07
265000.E+03  5525.87E-06  2404.18E-07
270000.E+03  5022.17E-06  2761.40E-07
275000.E+03  4482.59E-06  3962.50E-07
280000.E+03  3700.11E-06  3854.72E-07
285000.E+03  2638.25E-06  4424.27E-07
290000.E+03  1540.49E-06  3231.28E-07
295000.E+03  5837.22E-07  1638.48E-07
300000.E+03  1100.83E-07  4779.92E-08
305000.E+03  7055.21E-09  3482.89E-09
310000.E+03  0000.00E+00  0000.00E+00
315000.E+03  0000.00E+00  0000.00E+00
320000.E+03  0000.00E+00  0000.00E+00
325000.E+03  0000.00E+00  0000.00E+00
330000.E+03  0000.00E+00  0000.00E+00
335000.E+03  0000.00E+00  0000.00E+00
340000.E+03  0000.00E+00  0000.00E+00
345000.E+03  0000.00E+00  0000.00E+00
350000.E+03  0000.00E+00  0000.00E+00
355000.E+03  0000.00E+00  0000.00E+00
360000.E+03  0000.00E+00  0000.00E+00
365000.E+03  0000.00E+00  0000.00E+00
370000.E+03  0000.00E+00  0000.00E+00
375000.E+03  0000.00E+00  0000.00E+00
380000.E+03  0000.00E+00  0000.00E+00
385000.E+03  0000.00E+00  0000.00E+00
390000.E+03  0000.00E+00  0000.00E+00
395000.E+03  0000.00E+00  0000.00E+00
400000.E+03  0000.00E+00  0000.00E+00
405000.E+03  0000.00E+00  0000.00E+00
410000.E+03  0000.00E+00  0000.00E+00
415000.E+03  0000.00E+00  0000.00E+00
420000.E+03  0000.00E+00  0000.00E+00
425000.E+03  0000.00E+00  0000.00E+00
430000.E+03  0000.00E+00  0000.00E+00
435000.E+03  0000.00E+00  0000.00E+00
440000.E+03  0000.00E+00  0000.00E+00
445000.E+03  0000.00E+00  0000.00E+00
450000.E+03  0000.00E+00  0000.00E+00
455000.E+03  0000.00E+00  0000.00E+00
460000.E+03  0000.00E+00  0000.00E+00
465000.E+03  0000.00E+00  0000.00E+00
470000.E+03  0000.00E+00  0000.00E+00
475000.E+03  0000.00E+00  0000.00E+00
480000.E+03  0000.00E+00  0000.00E+00
485000.E+03  0000.00E+00  0000.00E+00
490000.E+03  0000.00E+00  0000.00E+00
495000.E+03  0000.00E+00  0000.00E+00
500000.E+03  0000.00E+00  0000.00E+00
